 Love_out_fail_model                                                              REF PER =   1.0 SECS


  LEVEL    RADIUS        RHO         VPV         VPH         VSV         VSH         ETA         QMU         QKAP

     1         0.0    13088.50    11262.20    11262.20     3667.80     3667.80     1.00000       84.60     1327.70
     2      8105.0    13088.49    11262.19    11262.19     3667.79     3667.79     1.00000       84.60     1327.70
     3     22776.0    13088.39    11262.12    11262.12     3667.74     3667.74     1.00000       84.60     1327.70
     4     37447.0    13088.19    11261.98    11261.98     3667.65     3667.65     1.00000       84.60     1327.70
     5     52117.0    13087.91    11261.77    11261.77     3667.50     3667.50     1.00000       84.60     1327.70
     6     66786.0    13087.53    11261.50    11261.50     3667.31     3667.31     1.00000       84.60     1327.70
     7     81454.0    13087.06    11261.16    11261.16     3667.07     3667.07     1.00000       84.60     1327.70
     8     96122.0    13086.49    11260.75    11260.75     3666.79     3666.79     1.00000       84.60     1327.70
     9    110787.0    13085.83    11260.28    11260.28     3666.46     3666.46     1.00000       84.60     1327.70
    10    125452.0    13085.07    11259.73    11259.73     3666.08     3666.08     1.00000       84.60     1327.70
    11    140114.0    13084.23    11259.12    11259.12     3665.65     3665.65     1.00000       84.60     1327.70
    12    154775.0    13083.28    11258.44    11258.44     3665.18     3665.18     1.00000       84.60     1327.70
    13    169434.0    13082.25    11257.70    11257.70     3664.65     3664.65     1.00000       84.60     1327.70
    14    184090.0    13081.12    11256.89    11256.89     3664.09     3664.09     1.00000       84.60     1327.70
    15    198744.0    13079.90    11256.01    11256.01     3663.47     3663.47     1.00000       84.60     1327.70
    16    213395.0    13078.58    11255.06    11255.06     3662.81     3662.81     1.00000       84.60     1327.70
    17    228044.0    13077.18    11254.05    11254.05     3662.10     3662.10     1.00000       84.60     1327.70
    18    242689.0    13075.68    11252.97    11252.97     3661.35     3661.35     1.00000       84.60     1327.70
    19    257331.0    13074.08    11251.82    11251.82     3660.54     3660.54     1.00000       84.60     1327.70
    20    271970.0    13072.39    11250.60    11250.60     3659.70     3659.70     1.00000       84.60     1327.70
    21    286605.0    13070.61    11249.32    11249.32     3658.80     3658.80     1.00000       84.60     1327.70
    22    301237.0    13068.74    11247.97    11247.97     3657.86     3657.86     1.00000       84.60     1327.70
    23    315864.0    13066.78    11246.56    11246.56     3656.87     3656.87     1.00000       84.60     1327.70
    24    330487.0    13064.72    11245.08    11245.08     3655.83     3655.83     1.00000       84.60     1327.70
    25    345106.0    13062.57    11243.53    11243.53     3654.75     3654.75     1.00000       84.60     1327.70
    26    359721.0    13060.32    11241.91    11241.91     3653.62     3653.62     1.00000       84.60     1327.70
    27    374331.0    13057.99    11240.23    11240.23     3652.45     3652.45     1.00000       84.60     1327.70
    28    388936.0    13055.56    11238.48    11238.48     3651.22     3651.22     1.00000       84.60     1327.70
    29    403535.0    13053.04    11236.67    11236.67     3649.96     3649.96     1.00000       84.60     1327.70
    30    418130.0    13050.43    11234.79    11234.79     3648.64     3648.64     1.00000       84.60     1327.70
    31    432719.0    13047.73    11232.84    11232.84     3647.28     3647.28     1.00000       84.60     1327.70
    32    447303.0    13044.93    11230.83    11230.83     3645.88     3645.88     1.00000       84.60     1327.70
    33    461880.0    13042.05    11228.75    11228.75     3644.42     3644.42     1.00000       84.60     1327.70
    34    476452.0    13039.07    11226.61    11226.61     3642.93     3642.93     1.00000       84.60     1327.70
    35    491017.0    13036.00    11224.40    11224.40     3641.38     3641.38     1.00000       84.60     1327.70
    36    505577.0    13032.84    11222.12    11222.12     3639.79     3639.79     1.00000       84.60     1327.70
    37    520129.0    13029.59    11219.78    11219.78     3638.16     3638.16     1.00000       84.60     1327.70
    38    534675.0    13026.25    11217.38    11217.38     3636.48     3636.48     1.00000       84.60     1327.70
    39    549214.0    13022.82    11214.91    11214.91     3634.75     3634.75     1.00000       84.60     1327.70
    40    563746.0    13019.30    11212.37    11212.37     3632.98     3632.98     1.00000       84.60     1327.70
    41    578271.0    13015.69    11209.77    11209.77     3631.16     3631.16     1.00000       84.60     1327.70
    42    592788.0    13011.99    11207.10    11207.10     3629.30     3629.30     1.00000       84.60     1327.70
    43    607297.0    13008.19    11204.37    11204.37     3627.39     3627.39     1.00000       84.60     1327.70
    44    621799.0    13004.31    11201.58    11201.58     3625.44     3625.44     1.00000       84.60     1327.70
    45    636293.0    13000.34    11198.72    11198.72     3623.44     3623.44     1.00000       84.60     1327.70
    46    650779.0    12996.28    11195.80    11195.80     3621.39     3621.39     1.00000       84.60     1327.70
    47    665256.0    12992.13    11192.81    11192.81     3619.31     3619.31     1.00000       84.60     1327.70
    48    679724.0    12987.90    11189.76    11189.76     3617.17     3617.17     1.00000       84.60     1327.70
    49    694184.0    12983.57    11186.64    11186.64     3615.00     3615.00     1.00000       84.60     1327.70
    50    708636.0    12979.16    11183.47    11183.47     3612.78     3612.78     1.00000       84.60     1327.70
    51    723078.0    12974.66    11180.22    11180.22     3610.51     3610.51     1.00000       84.60     1327.70
    52    737510.0    12970.07    11176.92    11176.92     3608.20     3608.20     1.00000       84.60     1327.70
    53    751934.0    12965.39    11173.55    11173.55     3605.85     3605.85     1.00000       84.60     1327.70
    54    766348.0    12960.62    11170.12    11170.12     3603.45     3603.45     1.00000       84.60     1327.70
    55    780752.0    12955.77    11166.63    11166.63     3601.01     3601.01     1.00000       84.60     1327.70
    56    795146.0    12950.83    11163.07    11163.07     3598.52     3598.52     1.00000       84.60     1327.70
    57    809530.0    12945.80    11159.45    11159.45     3595.99     3595.99     1.00000       84.60     1327.70
    58    823903.0    12940.69    11155.77    11155.77     3593.42     3593.42     1.00000       84.60     1327.70
    59    838267.0    12935.49    11152.03    11152.03     3590.80     3590.80     1.00000       84.60     1327.70
    60    852619.0    12930.21    11148.22    11148.22     3588.15     3588.15     1.00000       84.60     1327.70
    61    866961.0    12924.84    11144.35    11144.35     3585.44     3585.44     1.00000       84.60     1327.70
    62    881292.0    12919.38    11140.43    11140.43     3582.70     3582.70     1.00000       84.60     1327.70
    63    895611.0    12913.84    11136.44    11136.44     3579.91     3579.91     1.00000       84.60     1327.70
    64    909920.0    12908.22    11132.39    11132.39     3577.08     3577.08     1.00000       84.60     1327.70
    65    924217.0    12902.51    11128.27    11128.27     3574.21     3574.21     1.00000       84.60     1327.70
    66    938502.0    12896.72    11124.10    11124.10     3571.29     3571.29     1.00000       84.60     1327.70
    67    952775.0    12890.84    11119.87    11119.87     3568.33     3568.33     1.00000       84.60     1327.70
    68    967036.0    12884.88    11115.58    11115.58     3565.33     3565.33     1.00000       84.60     1327.70
    69    981285.0    12878.83    11111.22    11111.22     3562.29     3562.29     1.00000       84.60     1327.70
    70    995522.0    12872.70    11106.81    11106.81     3559.21     3559.21     1.00000       84.60     1327.70
    71   1009747.0    12866.49    11102.34    11102.34     3556.08     3556.08     1.00000       84.60     1327.70
    72   1023958.0    12860.20    11097.81    11097.81     3552.91     3552.91     1.00000       84.60     1327.70
    73   1038157.0    12853.82    11093.22    11093.22     3549.71     3549.71     1.00000       84.60     1327.70
    74   1052343.0    12847.37    11088.57    11088.57     3546.46     3546.46     1.00000       84.60     1327.70
    75   1066516.0    12840.83    11083.86    11083.86     3543.17     3543.17     1.00000       84.60     1327.70
    76   1080675.0    12834.21    11079.09    11079.09     3539.84     3539.84     1.00000       84.60     1327.70
    77   1094821.0    12827.51    11074.27    11074.27     3536.46     3536.46     1.00000       84.60     1327.70
    78   1108953.0    12820.73    11069.38    11069.38     3533.05     3533.05     1.00000       84.60     1327.70
    79   1123071.0    12813.86    11064.44    11064.44     3529.60     3529.60     1.00000       84.60     1327.70
    80   1137176.0    12806.92    11059.45    11059.45     3526.10     3526.10     1.00000       84.60     1327.70
    81   1151266.0    12799.90    11054.39    11054.39     3522.57     3522.57     1.00000       84.60     1327.70
    82   1165342.0    12792.80    11049.28    11049.28     3519.00     3519.00     1.00000       84.60     1327.70
    83   1179404.0    12785.62    11044.11    11044.11     3515.39     3515.39     1.00000       84.60     1327.70
    84   1193451.0    12778.36    11038.88    11038.88     3511.73     3511.73     1.00000       84.60     1327.70
    85   1207483.0    12771.03    11033.60    11033.60     3508.04     3508.04     1.00000       84.60     1327.70
    86   1221500.0    12763.61    11028.26    11028.26     3504.31     3504.31     1.00000       84.60     1327.70
    87   1221500.0    12165.96    10355.72    10355.72        0.00        0.00     1.00000        0.00    57823.00
    88   1235286.0    12158.85    10347.71    10347.71        0.00        0.00     1.00000        0.00    57823.00
    89   1276580.0    12137.14    10323.57    10323.57        0.00        0.00     1.00000        0.00    57823.00
    90   1317777.0    12114.91    10299.20    10299.20        0.00        0.00     1.00000        0.00    57823.00
    91   1358876.0    12092.14    10274.58    10274.58        0.00        0.00     1.00000        0.00    57823.00
    92   1399874.0    12068.82    10249.71    10249.71        0.00        0.00     1.00000        0.00    57823.00
    93   1440773.0    12044.96    10224.55    10224.55        0.00        0.00     1.00000        0.00    57823.00
    94   1481569.0    12020.55    10199.09    10199.09        0.00        0.00     1.00000        0.00    57823.00
    95   1522262.0    11995.60    10173.32    10173.32        0.00        0.00     1.00000        0.00    57823.00
    96   1562851.0    11970.08    10147.21    10147.21        0.00        0.00     1.00000        0.00    57823.00
    97   1603334.0    11944.01    10120.75    10120.75        0.00        0.00     1.00000        0.00    57823.00
    98   1643710.0    11917.38    10093.93    10093.93        0.00        0.00     1.00000        0.00    57823.00
    99   1683977.0    11890.18    10066.72    10066.72        0.00        0.00     1.00000        0.00    57823.00
   100   1724133.0    11862.42    10039.11    10039.11        0.00        0.00     1.00000        0.00    57823.00
   101   1764177.0    11834.10    10011.08    10011.08        0.00        0.00     1.00000        0.00    57823.00
   102   1804108.0    11805.20     9982.63     9982.63        0.00        0.00     1.00000        0.00    57823.00
   103   1843923.0    11775.74     9953.73     9953.73        0.00        0.00     1.00000        0.00    57823.00
   104   1883620.0    11745.70     9924.37     9924.37        0.00        0.00     1.00000        0.00    57823.00
   105   1923199.0    11715.10     9894.54     9894.54        0.00        0.00     1.00000        0.00    57823.00
   106   1962655.0    11683.92     9864.23     9864.23        0.00        0.00     1.00000        0.00    57823.00
   107   2001989.0    11652.17     9833.42     9833.42        0.00        0.00     1.00000        0.00    57823.00
   108   2041198.0    11619.85     9802.11     9802.11        0.00        0.00     1.00000        0.00    57823.00
   109   2080279.0    11586.96     9770.27     9770.27        0.00        0.00     1.00000        0.00    57823.00
   110   2119230.0    11553.50     9737.91     9737.91        0.00        0.00     1.00000        0.00    57823.00
   111   2158050.0    11519.47     9705.00     9705.00        0.00        0.00     1.00000        0.00    57823.00
   112   2196736.0    11484.87     9671.54     9671.54        0.00        0.00     1.00000        0.00    57823.00
   113   2235287.0    11449.71     9637.52     9637.52        0.00        0.00     1.00000        0.00    57823.00
   114   2273698.0    11413.98     9602.94     9602.94        0.00        0.00     1.00000        0.00    57823.00
   115   2311969.0    11377.69     9567.77     9567.77        0.00        0.00     1.00000        0.00    57823.00
   116   2350097.0    11340.85     9532.02     9532.02        0.00        0.00     1.00000        0.00    57823.00
   117   2388080.0    11303.45     9495.68     9495.68        0.00        0.00     1.00000        0.00    57823.00
   118   2425915.0    11265.49     9458.75     9458.75        0.00        0.00     1.00000        0.00    57823.00
   119   2463600.0    11226.99     9421.21     9421.21        0.00        0.00     1.00000        0.00    57823.00
   120   2501132.0    11187.94     9383.06     9383.06        0.00        0.00     1.00000        0.00    57823.00
   121   2538509.0    11148.36     9344.29     9344.29        0.00        0.00     1.00000        0.00    57823.00
   122   2575729.0    11108.24     9304.91     9304.91        0.00        0.00     1.00000        0.00    57823.00
   123   2612789.0    11067.59     9264.91     9264.91        0.00        0.00     1.00000        0.00    57823.00
   124   2649686.0    11026.41     9224.28     9224.28        0.00        0.00     1.00000        0.00    57823.00
   125   2686418.0    10984.72     9183.02     9183.02        0.00        0.00     1.00000        0.00    57823.00
   126   2722982.0    10942.51     9141.14     9141.14        0.00        0.00     1.00000        0.00    57823.00
   127   2759377.0    10899.80     9098.63     9098.63        0.00        0.00     1.00000        0.00    57823.00
   128   2795599.0    10856.58     9055.49     9055.49        0.00        0.00     1.00000        0.00    57823.00
   129   2831646.0    10812.88     9011.71     9011.71        0.00        0.00     1.00000        0.00    57823.00
   130   2867515.0    10768.69     8967.31     8967.31        0.00        0.00     1.00000        0.00    57823.00
   131   2903204.0    10724.02     8922.28     8922.28        0.00        0.00     1.00000        0.00    57823.00
   132   2938711.0    10678.88     8876.63     8876.63        0.00        0.00     1.00000        0.00    57823.00
   133   2974032.0    10633.28     8830.35     8830.35        0.00        0.00     1.00000        0.00    57823.00
   134   3009166.0    10587.23     8783.45     8783.45        0.00        0.00     1.00000        0.00    57823.00
   135   3044109.0    10540.74     8735.93     8735.93        0.00        0.00     1.00000        0.00    57823.00
   136   3078861.0    10493.81     8687.80     8687.80        0.00        0.00     1.00000        0.00    57823.00
   137   3113417.0    10446.45     8639.06     8639.06        0.00        0.00     1.00000        0.00    57823.00
   138   3147776.0    10398.68     8589.72     8589.72        0.00        0.00     1.00000        0.00    57823.00
   139   3181935.0    10350.50     8539.79     8539.79        0.00        0.00     1.00000        0.00    57823.00
   140   3215892.0    10301.93     8489.26     8489.26        0.00        0.00     1.00000        0.00    57823.00
   141   3249645.0    10252.98     8438.15     8438.15        0.00        0.00     1.00000        0.00    57823.00
   142   3283191.0    10203.65     8386.47     8386.47        0.00        0.00     1.00000        0.00    57823.00
   143   3316527.0    10153.96     8334.22     8334.22        0.00        0.00     1.00000        0.00    57823.00
   144   3349653.0    10103.91     8281.41     8281.41        0.00        0.00     1.00000        0.00    57823.00
   145   3382565.0    10053.53     8228.05     8228.05        0.00        0.00     1.00000        0.00    57823.00
   146   3415262.0    10002.82     8174.16     8174.16        0.00        0.00     1.00000        0.00    57823.00
   147   3447741.0     9951.79     8119.73     8119.73        0.00        0.00     1.00000        0.00    57823.00
   148   3480000.0     9900.45     8064.79     8064.79        0.00        0.00     1.00000        0.00    57823.00
   149   3480000.0     5566.46    13716.62    13716.62     7264.65     7264.65     1.00000      312.00    57823.00
   150   3484690.0     5564.10    13715.47    13715.47     7264.70     7264.70     1.00000      312.00    57823.00
   151   3513750.0     5549.55    13708.36    13708.36     7264.99     7264.99     1.00000      312.00    57823.00
   152   3542811.0     5535.01    13701.30    13701.30     7265.26     7265.26     1.00000      312.00    57823.00
   153   3571873.0     5520.48    13694.30    13694.30     7265.52     7265.52     1.00000      312.00    57823.00
   154   3600936.0     5505.97    13687.35    13687.35     7265.75     7265.75     1.00000      312.00    57823.00
   155   3630000.0     5491.48    13680.44    13680.44     7265.97     7265.97     1.00000      312.00    57823.00
   156   3630000.0     5491.48    13680.42    13680.42     7265.93     7265.93     1.00000      312.00    57823.00
   157   3649585.0     5481.71    13656.66    13656.66     7256.95     7256.95     1.00000      312.00    57823.00
   158   3678560.0     5467.28    13621.71    13621.71     7243.73     7243.73     1.00000      312.00    57823.00
   159   3707483.0     5452.88    13587.04    13587.04     7230.58     7230.58     1.00000      312.00    57823.00
   160   3736353.0     5438.51    13552.63    13552.63     7217.52     7217.52     1.00000      312.00    57823.00
   161   3765171.0     5424.17    13518.48    13518.48     7204.52     7204.52     1.00000      312.00    57823.00
   162   3793937.0     5409.86    13484.56    13484.56     7191.59     7191.59     1.00000      312.00    57823.00
   163   3822652.0     5395.57    13450.86    13450.86     7178.71     7178.71     1.00000      312.00    57823.00
   164   3851316.0     5381.31    13417.36    13417.36     7165.89     7165.89     1.00000      312.00    57823.00
   165   3879928.0     5367.07    13384.05    13384.05     7153.12     7153.12     1.00000      312.00    57823.00
   166   3908490.0     5352.86    13350.92    13350.92     7140.39     7140.39     1.00000      312.00    57823.00
   167   3937000.0     5338.66    13317.94    13317.94     7127.70     7127.70     1.00000      312.00    57823.00
   168   3965461.0     5324.49    13285.10    13285.10     7115.05     7115.05     1.00000      312.00    57823.00
   169   3993870.0     5310.33    13252.39    13252.39     7102.42     7102.42     1.00000      312.00    57823.00
   170   4022230.0     5296.18    13219.79    13219.79     7089.81     7089.81     1.00000      312.00    57823.00
   171   4050538.0     5282.04    13187.29    13187.29     7077.22     7077.22     1.00000      312.00    57823.00
   172   4078797.0     5267.92    13154.88    13154.88     7064.64     7064.64     1.00000      312.00    57823.00
